#    s        x        y     Ue/Vinf    Dstar     Theta      Cf       H       H*        P         m          K          tau         Di
   0.00000  1.00000  0.00094  0.91192  0.002200  0.001450  0.002181    1.5178    1.7157  0.00121  0.00201  0.00189
   0.00786  0.99218  0.00176  0.92325  0.002066  0.001378  0.002334    1.4994    1.7223  0.00117  0.00191  0.00187
   0.01931  0.98079  0.00294  0.93890  0.001895  0.001284  0.002552    1.4757    1.7320  0.00113  0.00178  0.00184
   0.03276  0.96742  0.00431  0.95202  0.001758  0.001204  0.002735    1.4597    1.7389  0.00109  0.00167  0.00181
   0.04721  0.95304  0.00575  0.96287  0.001646  0.001136  0.002889    1.4486    1.7439  0.00105  0.00158  0.00177
   0.06204  0.93828  0.00720  0.97182  0.001552  0.001077  0.003020    1.4407    1.7476  0.00102  0.00151  0.00173
   0.07699  0.92340  0.00864  0.97937  0.001471  0.001025  0.003135    1.4349    1.7505  0.00098  0.00144  0.00169
   0.09199  0.90847  0.01006  0.98591  0.001398  0.000978  0.003240    1.4303    1.7529  0.00095  0.00138  0.00164
   0.10700  0.89352  0.01146  0.99167  0.001331  0.000933  0.003338    1.4265    1.7550  0.00092  0.00132  0.00160
   0.12201  0.87857  0.01283  0.99683  0.001269  0.000891  0.003432    1.4233    1.7568  0.00089  0.00126  0.00155
   0.13703  0.86361  0.01419  1.00151  0.001209  0.000851  0.003524    1.4204    1.7586  0.00085  0.00121  0.00150
   0.15205  0.84865  0.01551  1.00579  0.001152  0.000813  0.003614    1.4179    1.7602  0.00082  0.00116  0.00146
   0.16708  0.83368  0.01682  1.00974  0.001097  0.000775  0.003702    1.4159    1.7617  0.00079  0.00111  0.00141
   0.18210  0.81871  0.01810  1.01340  0.001044  0.000738  0.003788    1.4145    1.7629  0.00076  0.00106  0.00135
   0.19712  0.80374  0.01936  1.01678  0.000993  0.000702  0.003870    1.4141    1.7638  0.00073  0.00101  0.00130
   0.21215  0.78877  0.02060  1.01991  0.000943  0.000666  0.003942    1.4155    1.7640  0.00069  0.00096  0.00125
   0.22717  0.77379  0.02182  1.02278  0.000897  0.000632  0.003993    1.4203    1.7629  0.00066  0.00092  0.00119
   0.24220  0.75881  0.02301  1.02538  0.000855  0.000598  0.004007    1.4310    1.7595  0.00063  0.00088  0.00113
   0.25722  0.74384  0.02418  1.02769  0.000821  0.000565  0.003946    1.4526    1.7519  0.00060  0.00084  0.00107
   0.27225  0.72886  0.02533  1.02972  0.000798  0.000534  0.003750    1.4956    1.7367  0.00057  0.00082  0.00101
   0.28727  0.71388  0.02646  1.03167  0.000799  0.000505  0.003316    1.5812    1.7084  0.00054  0.00082  0.00095
   0.30229  0.69890  0.02756  1.03455  0.000842  0.000480  0.002537    1.7539    1.6595  0.00051  0.00087  0.00088
   0.31731  0.68392  0.02864  1.04118  0.000950  0.000454  0.001484    2.0901    1.5912  0.00049  0.00099  0.00082
   0.33232  0.66894  0.02969  1.05291  0.001105  0.000426  0.000645    2.5942    1.5336  0.00047  0.00116  0.00076
   0.34734  0.65396  0.03073  1.05770  0.001184  0.000414  0.000352    2.8629    1.5544  0.00046  0.00125  0.00076
   0.36235  0.63899  0.03173  1.05842  0.001196  0.000410  0.000323    2.9162    1.5513  0.00046  0.00127  0.00075
   0.37735  0.62401  0.03271  1.06008  0.001188  0.000405  0.000316    2.9361    1.5502  0.00045  0.00126  0.00075
   0.39235  0.60904  0.03366  1.06215  0.001173  0.000399  0.000319    2.9404    1.5499  0.00045  0.00125  0.00074
   0.40735  0.59407  0.03459  1.06444  0.001152  0.000392  0.000327    2.9366    1.5501  0.00044  0.00123  0.00073
   0.42234  0.57911  0.03548  1.06687  0.001130  0.000386  0.000338    2.9283    1.5506  0.00044  0.00121  0.00073
   0.43733  0.56415  0.03635  1.06938  0.001106  0.000379  0.000352    2.9175    1.5512  0.00043  0.00118  0.00072
   0.45231  0.54919  0.03719  1.07197  0.001082  0.000372  0.000367    2.9052    1.5519  0.00043  0.00116  0.00071
   0.46728  0.53424  0.03799  1.07460  0.001057  0.000365  0.000384    2.8921    1.5526  0.00042  0.00114  0.00070
   0.48225  0.51929  0.03876  1.07727  0.001032  0.000359  0.000402    2.8787    1.5534  0.00042  0.00111  0.00070
   0.49721  0.50435  0.03950  1.07997  0.001007  0.000352  0.000421    2.8651    1.5543  0.00041  0.00109  0.00069
   0.51216  0.48941  0.04020  1.08270  0.000983  0.000345  0.000441    2.8515    1.5551  0.00040  0.00106  0.00068
   0.52710  0.47449  0.04086  1.08545  0.000958  0.000338  0.000462    2.8380    1.5560  0.00040  0.00104  0.00067
   0.54203  0.45957  0.04148  1.08821  0.000933  0.000330  0.000484    2.8246    1.5568  0.00039  0.00102  0.00066
   0.55696  0.44466  0.04206  1.09098  0.000909  0.000323  0.000507    2.8115    1.5577  0.00038  0.00099  0.00065
   0.57187  0.42975  0.04259  1.09377  0.000885  0.000316  0.000532    2.7986    1.5586  0.00038  0.00097  0.00064
   0.58677  0.41486  0.04308  1.09656  0.000861  0.000309  0.000557    2.7859    1.5595  0.00037  0.00094  0.00064
   0.60165  0.39998  0.04352  1.09936  0.000837  0.000302  0.000584    2.7734    1.5604  0.00036  0.00092  0.00063
   0.61653  0.38511  0.04391  1.10215  0.000813  0.000294  0.000612    2.7612    1.5612  0.00036  0.00090  0.00062
   0.63139  0.37026  0.04425  1.10495  0.000789  0.000287  0.000642    2.7491    1.5621  0.00035  0.00087  0.00061
   0.64623  0.35542  0.04453  1.10773  0.000766  0.000280  0.000674    2.7374    1.5630  0.00034  0.00085  0.00059
   0.66106  0.34059  0.04475  1.11050  0.000742  0.000272  0.000707    2.7258    1.5639  0.00034  0.00082  0.00058
   0.67586  0.32579  0.04490  1.11326  0.000719  0.000265  0.000742    2.7145    1.5648  0.00033  0.00080  0.00057
   0.69065  0.31100  0.04499  1.11600  0.000696  0.000257  0.000779    2.7034    1.5657  0.00032  0.00078  0.00056
   0.70542  0.29623  0.04501  1.11870  0.000672  0.000250  0.000819    2.6925    1.5666  0.00031  0.00075  0.00055
   0.72016  0.28149  0.04495  1.12137  0.000649  0.000242  0.000862    2.6819    1.5674  0.00030  0.00073  0.00053
   0.73487  0.26678  0.04482  1.12399  0.000626  0.000234  0.000907    2.6715    1.5683  0.00030  0.00070  0.00052
   0.74956  0.25209  0.04460  1.12656  0.000602  0.000226  0.000956    2.6612    1.5692  0.00029  0.00068  0.00051
   0.76421  0.23744  0.04429  1.12906  0.000579  0.000218  0.001009    2.6513    1.5700  0.00028  0.00065  0.00049
   0.77883  0.22283  0.04388  1.13148  0.000556  0.000210  0.001066    2.6415    1.5709  0.00027  0.00063  0.00048
   0.79340  0.20827  0.04337  1.13380  0.000532  0.000202  0.001128    2.6319    1.5718  0.00026  0.00060  0.00046
   0.80793  0.19375  0.04275  1.13602  0.000508  0.000194  0.001196    2.6225    1.5726  0.00025  0.00058  0.00045
   0.82240  0.17930  0.04201  1.13809  0.000484  0.000185  0.001271    2.6133    1.5734  0.00024  0.00055  0.00043
   0.83681  0.16492  0.04114  1.13999  0.000460  0.000177  0.001355    2.6042    1.5743  0.00023  0.00052  0.00041
   0.85114  0.15062  0.04014  1.14169  0.000435  0.000168  0.001448    2.5952    1.5751  0.00022  0.00050  0.00039
   0.86538  0.13643  0.03898  1.14313  0.000410  0.000159  0.001555    2.5863    1.5760  0.00021  0.00047  0.00037
   0.87950  0.12238  0.03765  1.14424  0.000385  0.000149  0.001677    2.5773    1.5769  0.00020  0.00044  0.00035
   0.89346  0.10849  0.03615  1.14493  0.000358  0.000140  0.001820    2.5681    1.5778  0.00018  0.00041  0.00033
   0.90722  0.09484  0.03445  1.14504  0.000331  0.000129  0.001990    2.5585    1.5787  0.00017  0.00038  0.00031
   0.92068  0.08151  0.03254  1.14437  0.000303  0.000119  0.002196    2.5483    1.5798  0.00016  0.00035  0.00028
   0.93370  0.06867  0.03041  1.14258  0.000275  0.000108  0.002450    2.5371    1.5809  0.00014  0.00031  0.00026
   0.94601  0.05658  0.02809  1.13919  0.000246  0.000097  0.002769    2.5244    1.5822  0.00013  0.00028  0.00023
   0.95726  0.04561  0.02563  1.13357  0.000217  0.000087  0.003168    2.5097    1.5838  0.00011  0.00025  0.00020
   0.96706  0.03612  0.02314  1.12502  0.000190  0.000076  0.003659    2.4929    1.5856  0.00010  0.00021  0.00017
   0.97524  0.02830  0.02075  1.11291  0.000165  0.000067  0.004243    2.4742    1.5877  0.00008  0.00018  0.00015
   0.98189  0.02204  0.01851  1.09659  0.000144  0.000059  0.004918    2.4539    1.5901  0.00007  0.00016  0.00012
   0.98728  0.01706  0.01644  1.07520  0.000125  0.000051  0.005680    2.4324    1.5926  0.00006  0.00013  0.00010
   0.99171  0.01308  0.01451  1.04736  0.000108  0.000045  0.006533    2.4095    1.5955  0.00005  0.00011  0.00008
   0.99541  0.00986  0.01269  1.01091  0.000093  0.000039  0.007466    2.3856    1.5985  0.00004  0.00009  0.00006
   0.99856  0.00724  0.01095  0.96269  0.000081  0.000034  0.008451    2.3605    1.6018  0.00003  0.00008  0.00005
   1.00129  0.00509  0.00924  0.89792  0.000069  0.000030  0.009416    2.3335    1.6055  0.00002  0.00006  0.00003
   1.00371  0.00336  0.00756  0.81005  0.000059  0.000026  0.010140    2.3076    1.6092  0.00002  0.00005  0.00002
   1.00588  0.00200  0.00587  0.69075  0.000051  0.000022  0.010309    2.2795    1.6133  0.00001  0.00004  0.00001
   1.00785  0.00100  0.00417  0.53252  0.000045  0.000020  0.009249    2.2576    1.6166  0.00001  0.00002  0.00000
   1.00967  0.00035  0.00247  0.33473  0.000041  0.000018  0.006546    2.2366    1.6199  0.00000  0.00001  0.00000
   1.01137  0.00004  0.00080  0.11205  0.000039  0.000017  0.002304    2.2295    1.6211  0.00000  0.00000  0.00000
   1.01298  0.00004 -0.00080 -0.11205  0.000039  0.000017  0.002304    2.2295    1.6211  0.00000 -0.00000 -0.00000
   1.01467  0.00035 -0.00247 -0.33473  0.000041  0.000018  0.006546    2.2366    1.6199  0.00000 -0.00001 -0.00000
   1.01649  0.00100 -0.00417 -0.53252  0.000045  0.000020  0.009249    2.2576    1.6166  0.00001 -0.00002 -0.00000
   1.01846  0.00200 -0.00587 -0.69075  0.000051  0.000022  0.010309    2.2795    1.6133  0.00001 -0.00004 -0.00001
   1.02063  0.00336 -0.00756 -0.81005  0.000059  0.000026  0.010140    2.3076    1.6092  0.00002 -0.00005 -0.00002
   1.02305  0.00509 -0.00924 -0.89792  0.000069  0.000030  0.009416    2.3335    1.6055  0.00002 -0.00006 -0.00003
   1.02578  0.00724 -0.01095 -0.96269  0.000081  0.000034  0.008451    2.3605    1.6018  0.00003 -0.00008 -0.00005
   1.02894  0.00986 -0.01269 -1.01091  0.000093  0.000039  0.007466    2.3856    1.5985  0.00004 -0.00009 -0.00006
   1.03263  0.01308 -0.01451 -1.04736  0.000108  0.000045  0.006533    2.4095    1.5955  0.00005 -0.00011 -0.00008
   1.03706  0.01706 -0.01644 -1.07520  0.000125  0.000051  0.005680    2.4324    1.5926  0.00006 -0.00013 -0.00010
   1.04245  0.02204 -0.01851 -1.09659  0.000144  0.000059  0.004918    2.4539    1.5901  0.00007 -0.00016 -0.00012
   1.04910  0.02830 -0.02075 -1.11291  0.000165  0.000067  0.004243    2.4742    1.5877  0.00008 -0.00018 -0.00015
   1.05728  0.03612 -0.02314 -1.12502  0.000190  0.000076  0.003659    2.4929    1.5856  0.00010 -0.00021 -0.00017
   1.06708  0.04561 -0.02563 -1.13357  0.000217  0.000087  0.003168    2.5097    1.5838  0.00011 -0.00025 -0.00020
   1.07833  0.05658 -0.02809 -1.13919  0.000246  0.000097  0.002769    2.5244    1.5822  0.00013 -0.00028 -0.00023
   1.09064  0.06867 -0.03041 -1.14258  0.000275  0.000108  0.002450    2.5371    1.5809  0.00014 -0.00031 -0.00026
   1.10366  0.08151 -0.03254 -1.14437  0.000303  0.000119  0.002196    2.5483    1.5798  0.00016 -0.00035 -0.00028
   1.11712  0.09484 -0.03445 -1.14504  0.000331  0.000129  0.001990    2.5585    1.5787  0.00017 -0.00038 -0.00031
   1.13088  0.10849 -0.03615 -1.14493  0.000358  0.000140  0.001820    2.5681    1.5778  0.00018 -0.00041 -0.00033
   1.14485  0.12238 -0.03765 -1.14424  0.000385  0.000149  0.001677    2.5773    1.5769  0.00020 -0.00044 -0.00035
   1.15896  0.13643 -0.03898 -1.14313  0.000410  0.000159  0.001555    2.5863    1.5760  0.00021 -0.00047 -0.00037
   1.17320  0.15062 -0.04014 -1.14169  0.000435  0.000168  0.001448    2.5952    1.5751  0.00022 -0.00050 -0.00039
   1.18753  0.16492 -0.04114 -1.13999  0.000460  0.000177  0.001355    2.6042    1.5743  0.00023 -0.00052 -0.00041
   1.20194  0.17930 -0.04201 -1.13809  0.000484  0.000185  0.001271    2.6133    1.5734  0.00024 -0.00055 -0.00043
   1.21641  0.19375 -0.04275 -1.13602  0.000508  0.000194  0.001196    2.6225    1.5726  0.00025 -0.00058 -0.00045
   1.23094  0.20827 -0.04337 -1.13380  0.000532  0.000202  0.001128    2.6319    1.5718  0.00026 -0.00060 -0.00046
   1.24551  0.22283 -0.04388 -1.13148  0.000556  0.000210  0.001066    2.6415    1.5709  0.00027 -0.00063 -0.00048
   1.26013  0.23744 -0.04429 -1.12906  0.000579  0.000218  0.001009    2.6513    1.5700  0.00028 -0.00065 -0.00049
   1.27478  0.25209 -0.04460 -1.12656  0.000602  0.000226  0.000956    2.6612    1.5692  0.00029 -0.00068 -0.00051
   1.28947  0.26678 -0.04482 -1.12399  0.000626  0.000234  0.000907    2.6715    1.5683  0.00030 -0.00070 -0.00052
   1.30418  0.28149 -0.04495 -1.12137  0.000649  0.000242  0.000862    2.6819    1.5674  0.00030 -0.00073 -0.00053
   1.31893  0.29623 -0.04501 -1.11870  0.000672  0.000250  0.000819    2.6925    1.5666  0.00031 -0.00075 -0.00055
   1.33369  0.31100 -0.04499 -1.11600  0.000696  0.000257  0.000779    2.7034    1.5657  0.00032 -0.00078 -0.00056
   1.34848  0.32579 -0.04490 -1.11326  0.000719  0.000265  0.000742    2.7145    1.5648  0.00033 -0.00080 -0.00057
   1.36329  0.34059 -0.04475 -1.11050  0.000742  0.000272  0.000707    2.7258    1.5639  0.00034 -0.00082 -0.00058
   1.37811  0.35542 -0.04453 -1.10773  0.000766  0.000280  0.000674    2.7374    1.5630  0.00034 -0.00085 -0.00059
   1.39296  0.37026 -0.04425 -1.10495  0.000789  0.000287  0.000642    2.7491    1.5621  0.00035 -0.00087 -0.00061
   1.40781  0.38511 -0.04391 -1.10215  0.000813  0.000294  0.000612    2.7612    1.5612  0.00036 -0.00090 -0.00062
   1.42269  0.39998 -0.04352 -1.09936  0.000837  0.000302  0.000584    2.7734    1.5604  0.00036 -0.00092 -0.00063
   1.43757  0.41486 -0.04308 -1.09656  0.000861  0.000309  0.000557    2.7859    1.5595  0.00037 -0.00094 -0.00064
   1.45247  0.42975 -0.04259 -1.09377  0.000885  0.000316  0.000532    2.7986    1.5586  0.00038 -0.00097 -0.00064
   1.46739  0.44466 -0.04206 -1.09098  0.000909  0.000323  0.000507    2.8115    1.5577  0.00038 -0.00099 -0.00065
   1.48231  0.45957 -0.04148 -1.08821  0.000933  0.000330  0.000484    2.8246    1.5568  0.00039 -0.00102 -0.00066
   1.49724  0.47449 -0.04086 -1.08545  0.000958  0.000338  0.000462    2.8380    1.5560  0.00040 -0.00104 -0.00067
   1.51218  0.48941 -0.04020 -1.08270  0.000983  0.000345  0.000441    2.8515    1.5551  0.00040 -0.00106 -0.00068
   1.52713  0.50435 -0.03950 -1.07997  0.001007  0.000352  0.000421    2.8651    1.5543  0.00041 -0.00109 -0.00069
   1.54209  0.51929 -0.03876 -1.07727  0.001032  0.000359  0.000402    2.8787    1.5534  0.00042 -0.00111 -0.00070
   1.55706  0.53424 -0.03799 -1.07460  0.001057  0.000365  0.000384    2.8921    1.5526  0.00042 -0.00114 -0.00070
   1.57203  0.54919 -0.03719 -1.07197  0.001082  0.000372  0.000367    2.9052    1.5519  0.00043 -0.00116 -0.00071
   1.58701  0.56415 -0.03635 -1.06938  0.001106  0.000379  0.000352    2.9175    1.5512  0.00043 -0.00118 -0.00072
   1.60200  0.57911 -0.03548 -1.06687  0.001130  0.000386  0.000338    2.9283    1.5506  0.00044 -0.00121 -0.00073
   1.61699  0.59407 -0.03459 -1.06444  0.001152  0.000392  0.000327    2.9366    1.5501  0.00044 -0.00123 -0.00073
   1.63199  0.60904 -0.03366 -1.06215  0.001173  0.000399  0.000319    2.9404    1.5499  0.00045 -0.00125 -0.00074
   1.64699  0.62401 -0.03271 -1.06008  0.001188  0.000405  0.000316    2.9361    1.5502  0.00045 -0.00126 -0.00075
   1.66200  0.63899 -0.03173 -1.05842  0.001196  0.000410  0.000323    2.9162    1.5513  0.00046 -0.00127 -0.00075
   1.67701  0.65396 -0.03073 -1.05770  0.001184  0.000414  0.000352    2.8629    1.5544  0.00046 -0.00125 -0.00076
   1.69202  0.66894 -0.02969 -1.05291  0.001105  0.000426  0.000645    2.5942    1.5337  0.00047 -0.00116 -0.00076
   1.70703  0.68392 -0.02864 -1.04118  0.000950  0.000454  0.001484    2.0901    1.5912  0.00049 -0.00099 -0.00082
   1.72205  0.69890 -0.02756 -1.03455  0.000842  0.000480  0.002537    1.7539    1.6595  0.00051 -0.00087 -0.00088
   1.73707  0.71388 -0.02646 -1.03167  0.000799  0.000505  0.003316    1.5812    1.7084  0.00054 -0.00082 -0.00095
   1.75209  0.72886 -0.02533 -1.02972  0.000798  0.000534  0.003750    1.4956    1.7368  0.00057 -0.00082 -0.00101
   1.76712  0.74384 -0.02418 -1.02769  0.000821  0.000565  0.003946    1.4526    1.7519  0.00060 -0.00084 -0.00107
   1.78214  0.75881 -0.02301 -1.02538  0.000855  0.000598  0.004007    1.4310    1.7595  0.00063 -0.00088 -0.00113
   1.79717  0.77379 -0.02182 -1.02278  0.000897  0.000632  0.003993    1.4203    1.7629  0.00066 -0.00092 -0.00119
   1.81219  0.78877 -0.02060 -1.01991  0.000943  0.000666  0.003942    1.4155    1.7640  0.00069 -0.00096 -0.00125
   1.82722  0.80374 -0.01936 -1.01678  0.000993  0.000702  0.003870    1.4141    1.7638  0.00073 -0.00101 -0.00130
   1.84224  0.81871 -0.01810 -1.01340  0.001044  0.000738  0.003788    1.4145    1.7630  0.00076 -0.00106 -0.00135
   1.85727  0.83368 -0.01682 -1.00974  0.001097  0.000775  0.003702    1.4159    1.7617  0.00079 -0.00111 -0.00141
   1.87229  0.84865 -0.01551 -1.00579  0.001152  0.000813  0.003614    1.4179    1.7602  0.00082 -0.00116 -0.00146
   1.88731  0.86361 -0.01419 -1.00151  0.001209  0.000851  0.003524    1.4204    1.7586  0.00085 -0.00121 -0.00150
   1.90233  0.87857 -0.01283 -0.99683  0.001269  0.000891  0.003432    1.4233    1.7568  0.00089 -0.00126 -0.00155
   1.91735  0.89352 -0.01146 -0.99167  0.001331  0.000933  0.003338    1.4265    1.7550  0.00092 -0.00132 -0.00160
   1.93236  0.90847 -0.01006 -0.98591  0.001398  0.000978  0.003240    1.4303    1.7529  0.00095 -0.00138 -0.00164
   1.94735  0.92340 -0.00864 -0.97937  0.001471  0.001025  0.003135    1.4349    1.7505  0.00098 -0.00144 -0.00169
   1.96231  0.93828 -0.00720 -0.97182  0.001552  0.001077  0.003020    1.4407    1.7476  0.00102 -0.00151 -0.00173
   1.97714  0.95304 -0.00575 -0.96287  0.001646  0.001136  0.002889    1.4486    1.7439  0.00105 -0.00158 -0.00177
   1.99159  0.96742 -0.00431 -0.95202  0.001758  0.001204  0.002735    1.4597    1.7389  0.00109 -0.00167 -0.00181
   2.00503  0.98079 -0.00294 -0.93890  0.001895  0.001284  0.002552    1.4757    1.7320  0.00113 -0.00178 -0.00184
   2.01648  0.99218 -0.00176 -0.92325  0.002066  0.001378  0.002334    1.4994    1.7223  0.00117 -0.00191 -0.00187
   2.02434  1.00000 -0.00094 -0.91192  0.002200  0.001450  0.002181    1.5178    1.7157  0.00121 -0.00201 -0.00189
   2.02434  1.00010  0.00000  0.91192  0.006280  0.002899  0.000000    2.1660
   2.03220  1.00796 -0.00000  0.88548  0.005256  0.003251  0.000000    1.6168
   2.04119  1.01695 -0.00000  0.90434  0.004604  0.003015  0.000000    1.5268
   2.05148  1.02724 -0.00000  0.91901  0.004166  0.002850  0.000000    1.4614
   2.06325  1.03901 -0.00000  0.93048  0.003850  0.002732  0.000000    1.4093
   2.07671  1.05247 -0.00000  0.93973  0.003605  0.002642  0.000000    1.3648
   2.09212  1.06788 -0.00000  0.94741  0.003407  0.002571  0.000000    1.3252
   2.10975  1.08550 -0.00000  0.95393  0.003240  0.002513  0.000000    1.2892
   2.12992  1.10567 -0.00000  0.95958  0.003096  0.002465  0.000000    1.2559
   2.15299  1.12875 -0.00000  0.96454  0.002970  0.002424  0.000000    1.2253
   2.17939  1.15515 -0.00000  0.96893  0.002860  0.002389  0.000000    1.1971
   2.20960  1.18535 -0.00000  0.97285  0.002763  0.002358  0.000000    1.1713
   2.24416  1.21991 -0.00000  0.97635  0.002677  0.002332  0.000000    1.1481
   2.28370  1.25946 -0.00000  0.97948  0.002602  0.002309  0.000000    1.1273
   2.32894  1.30470 -0.00000  0.98228  0.002538  0.002288  0.000000    1.1091
   2.38070  1.35646 -0.00000  0.98478  0.002482  0.002270  0.000000    1.0933
   2.43992  1.41568 -0.00000  0.98699  0.002434  0.002254  0.000000    1.0797
   2.50768  1.48344 -0.00000  0.98895  0.002394  0.002241  0.000000    1.0682
